 Data from Venus, Appendix A, 1046-1048, edited by Hunten, Colin, Donahue, 
 and Moroz, U. Arizona, 1983. Units: z[km], p[mbar], T[K], den[kg/m^3], 
 g[m/s^2], R[J/kg/K].  Height is relative to a radius of 6052.0 km.
  lat:    0-30                    40                45                   60                   75                 85        
#  z  T     p      den       T     p    den    T     p   den        T     p      den     T     p   den      T     p    den      g      R
51
   0 733  92100    65.0     733  92100  65.0                       737  92100    64.6
   2 717  81100    58.7     717  81100  58.7                       722  81200    58.4
   4 701  71200    52.9     701  71200  52.9                       706  71300    52.6
   6 685  62400    47.6     685  62400  47.6                       691  62500    47.2
   8 669  54400    42.5     669  54400  42.5                       675  54600    42.3
  10 653  47300    37.9     653  47300  37.9                       659  47500    37.7
  12 637  41000    33.8     637  41000  33.8                       644  41200    33.6
  14 623  35400    29.8     623  35400  29.8                       627  35600    29.9
  16 609  30500    26.3     609  30500  26.3                       611  30700    26.4
  18 595  26200    23.2     595  26200  23.2                       594  26300    23.3
  20 579  22400    20.4     579  22400  20.4                       577  22500    20.5
  22 562  19000    17.8     562  19000  17.8                       561  19100    17.9
  24 545  16100    15.5     545  16100  15.5                       544  16100    15.6
  26 529  13550    13.48    529  13550  13.48                      527  13560    13.56
  28 512  11350    11.67    512  11350  11.67                      509  11340    11.72
  30 495   9450    10.05    495   9450  10.05                      493   9430    10.07
  32 478   7820     8.61    478   7820   8.61                      477   7800     8.60
  34 461   6430     7.34    461   6430   7.34                      461   6400     7.30
  36 446   5250     6.19    446   5250   6.19                      445   5220     6.17
  38 430   4250     5.20    430   4250   5.20                      429   4230     5.18
  40 416   3420     4.32    416   3420   4.32                      415   3400     4.31
  42 403   2730     3.56    403   2730   3.56                      400   2710     3.56
  44 391   2170     2.91    391   2170   2.91                      388   2150     2.91
  46 379   1710     2.37    379   1710   2.37                      375   1690     2.36
  48 366   1336     1.91    366   1336   1.91                      359   1316     1.92
  50 349   1034     1.553   349   1034   1.553                     344   1014     1.545
  52 332    791     1.248   332    791   1.248                     324    772     1.248
  54 312    595     0.999   312    595   0.999                     303    577     0.995
  56 291    440     0.792   291    440   0.792                     282    422     0.783 
  58 274    318     0.608   274    318   0.608                     262    302     0.602
  60 263    227     0.451   263    227   0.451 258 221     0.447   243    210     0.452   235  190    0.422   243  173    0.372   8.696 191.40
  62 252    159     0.330   252    159   0.330 247 154     0.326   228    143     0.327   213  127    0.311   243  119    0.256   8.690 191.40
  64 244    110     0.236   244    110   0.236 240 106     0.231   217     95     0.229   220  82.9   0.197   243  81.9   0.176   8.684 191.40
  66 236     76     0.168   236     76   0.168 235  73     0.161   219     62.6   0.149   232  55.5   0.125   243  56.4   0.121   8.679 191.40 
  68 237     51.8   0.114                      240  49.5   0.108   240     42.2   0.0918  238  37.7   0.0829  242  38.8   0.0838  8.673 191.40
  70 233     35.2   0.0789                     236  33.8   0.0749  237     28.9   0.0636  239  25.8   0.0564  242  26.7   0.0576  8.667 191.40    
  72 228     23.8   0.0545                     231  23.0   0.0519  236     19.7   0.0436  238  17.7   0.0388  241  18.3   0.0398  8.662 191.40
  74 223     15.9   0.0373                     226  15.4   0.0357  234     13.4   0.0299  235  12.0   0.0268  238  12.6   0.0276  8.656 191.40
  76 217     10.54  0.0254                     221  10.3   0.0244  227      9.06  0.0208  230   8.16  0.0185  235   8.58  0.0191  8.650 191.40
  78 211      6.91  0.0171                     214   6.80  0.0166  218      6.04  0.0145  224   5.48  0.0128  230   5.82  0.0132  8.645 191.40
  80 203      4.47  0.0115                     207   4.43  0.0112  210      3.96  9.85e-3 217   3.57  8.60e-3 224   3.91  9.11e-3 8.639 191.40
  82 194      2.84  7.65e-3                    198   2.84  7.49e-3 202      2.56  6.61e-3 206   2.33  5.91e-3 215   2.59  6.29e-3 8.634 191.40
  84 184      1.76  5.00e-3                    189   1.78  4.92e-3 194      1.62  4.30e-3 195   1.49  3.98e-3 203   1.68  4.33e-3 8.628 191.44
  86 176      1.07  3.17e-3                    181   1.09  3.16e-3 185      1.01  2.84e-3 187   0.927 2.59e-3 192   1.07  2.90e-3 8.622 191.46
  88 171      0.637 1.95e-3                    175   0.660 1.97e-3 177      0.613 1.81e-3 180   0.568 1.65e-3 183   0.660 1.88e-3 8.617 191.53
  90 167      0.374 1.17e-3                    169   0.391 1.21e-3 170      0.365 1.12e-3 174   0.342 1.02e-3 176   0.400 1.19e-3 8.611 191.57
  92 164      0.217 6.90e-4                    165   0.228 7.22e-4 165      0.213 6.75e-4 169   0.202 6.25e-4 170   0.238 7.30e-4 8.605 191.66
  94 162      0.125 4.02e-4                    163   0.132 4.23e-4 163      0.123 3.95e-4 166   0.118 3.72e-4 168   0.140 4.34e-4 8.600 191.80
  96 162    7.19e-2 2.31e-4                    164 7.64e-2 2.43e-4 165    7.15e-2 2.26e-4 166 6.90e-2 2.17e-4 168 8.20e-2 2.54e-4 8.594 191.93
  98 163    4.15e-2 1.32e-4                    167 4.45e-2 1.39e-4 173    4.21e-2 1.27e-4 168 4.04e-2 1.25e-4 170 4.83e-2 1.48e-4 8.589 192.06
 100 170    2.42e-2 7.40e-5                    173 2.63e-2 7.91e-5 177    2.53e-2 7.42e-5 173 2.39e-2 7.19e-5 173 2.87e-2 8.62e-5 8.583 192.24
